77,780,280519
370,875,73720
662,690,73972
946,635,76056
1231,705,75789
1515,800,76056
1809,810,73469
2044,735,91914
2403,845,60167
2706,810,71287
2997,685,74226
3282,655,75789
3559,615,77978
3862,740,71287
4170,740,70129
4466,750,72972
4764,660,72483
5060,760,72972
5346,675,75524
5633,825,75261
5918,725,75789
6214,845,72972
6527,810,69009
6823,680,72972
7106,865,76325
7392,930,75524
7669,660,77978
7953,835,76056
8246,855,73720
8539,755,73720
8837,600,72483
9141,675,71052
9431,885,74482
9710,730,77419
9998,710,75000
10282,735,76056
10591,865,69902
10894,720,71287
11191,655,72727
11480,745,74740
11781,985,71760
12066,745,75789
12350,700,76056
12645,785,73220
12949,755,71052
13266,670,68138
13562,730,72972
13842,845,77142
14131,840,74740
14422,570,74226
14710,585,75000
15011,725,71760
15310,770,72240
15607,695,72727
15899,635,73972
16183,985,76056
16464,840,76868
16755,650,74226
17058,755,71287
17358,805,72000
17657,970,72240
17946,550,74740
18227,725,76868
18514,755,75261
18795,560,76868
19080,600,75789
19388,840,70129
19693,865,70819
19989,715,72972
20271,715,76595
20554,900,76325
20837,760,76325
21131,760,73469
21423,840,73972
21729,985,70588
22029,780,72000
22321,765,73972
22602,625,76868
22881,900,77419
23163,645,76595
23453,685,74482
23756,790,71287
24053,925,72727
24345,730,73972
24625,675,77142
24913,960,75000
25197,690,76056
25485,755,75000
25780,910,73220
26088,775,70129
26386,680,72483
26670,615,76056
26952,865,76595
27237,825,75789
27536,785,72240
27833,915,72727
28132,805,72240
28431,805,72240
28726,580,73220
29014,575,75000
29294,810,77142
29580,910,75524
29873,895,73720
30182,815,69902
30487,900,70819
30779,730,73972
31064,660,75789
31348,815,76056
31636,900,75000
31928,800,73972
32224,780,72972
32530,1005,70588
32836,825,70588
33127,795,74226
33403,700,78260
33691,975,75000
33980,695,74740
34274,815,73469
34575,930,71760
34870,890,73220
35168,775,72483
35455,810,75261
35747,-325,73972
36016,845,80297
36309,815,73720
36605,870,72972
36916,900,69453
37215,810,72240
37499,645,76056
37782,765,76325
38071,890,74740
38356,755,75789
38651,730,73220
38950,715,72240
39252,830,71523
39547,685,73220
39825,655,77697
40096,830,79704
40382,755,75524
40677,600,73220
40970,725,73720
41272,900,71523
41567,795,73220
41849,630,76595
42116,595,80898
42416,900,72000
42697,795,76868
42996,700,72240
43307,790,69453
43603,705,72972
43892,765,74740
44171,565,77419
44455,735,76056
44743,835,75000
45030,780,75261
45323,745,73720
45628,870,70819
45924,610,72972
46204,715,77142
46478,800,78832
46759,545,76868
47037,665,77697
47334,655,72727
47632,805,72483
47919,725,75261
48202,615,76325
48485,540,76325
48765,655,77142
49040,770,78545
49323,775,76325
49618,830,73220
49923,820,70819
50214,790,74226
50491,705,77978
50771,790,77142
51056,805,75789
51339,670,76325
51626,680,75261
51921,855,73220
52216,835,73220
52506,730,74482
52784,715,77697
53062,690,77697
53341,780,77419
53631,630,74482
53923,815,73972
54219,795,72972
54507,685,75000
54784,705,77978
55064,825,77142
55343,750,77419
55625,795,76595
55907,565,76595
56207,730,72000
56502,850,73220
56785,895,76325
57055,750,80000
57333,870,77697
57615,700,76595
57900,780,75789
58192,760,73972
58490,835,72483
58788,800,72483
59077,675,74740
59354,755,77978
59631,750,77978
59919,600,75000
60214,770,73220
60516,835,71523
60817,700,71760
61105,610,75000
61391,620,75524
61680,785,74740
61963,745,76325
62247,760,76056
62547,845,72000
62851,690,71052
63154,885,71287
63438,585,76056
63711,665,79120
63998,750,75261
64288,715,74482
64581,620,73720
64875,660,73469
65174,765,72240
65464,775,74482
65750,715,75524
66030,865,77142
66307,765,77978
66604,675,72727
66792,870,114893
67130,725,63905
67434,860,71052
67728,680,73469
68007,610,77419
68302,845,73220
68594,715,73972
68886,755,73972
69190,705,71052
69504,970,68789
69796,755,73972
70073,665,77978
70357,830,76056
70642,740,75789
70941,705,72240
71240,775,72240
71539,700,72240
71845,715,70588
72138,765,73720
72417,765,77419
72703,965,75524
72998,845,73220
73301,660,71287
73611,585,69677
73912,940,71760
74195,725,76325
74483,670,75000
74766,620,76325
74997,-410,93506
75332,730,64477
75632,645,72000
75935,815,71287
76233,750,72483
76515,770,76595
76785,620,80000
77074,835,74740
77367,890,73720
77663,570,72972
77954,735,74226
78251,805,72727
78539,775,75000
78824,770,75789
79099,545,78545
79386,780,75261
79689,705,71287
79991,535,71523
80290,540,72240
80583,775,73720
80868,620,75789
81152,780,76056
81439,835,75261
81730,765,74226
82030,605,72000
82335,775,70819
82636,725,71760
82927,795,74226
83209,635,76595
83492,710,76325
83794,750,71523
84103,645,69902
84407,690,71052
84709,745,71523
85010,840,71760
85303,690,73720
85580,735,77978
85870,745,74482
86171,700,71760
86478,710,70358
86780,825,71523
87079,1075,72240
87364,705,75789
87652,725,75000
87941,815,74740
88232,810,74226
88530,655,72483
88834,780,71052
89136,890,71523
89421,720,75789
89703,685,76595
89988,945,75789
90286,840,72483
90590,805,71052
90884,700,73469
91190,885,70588
91481,750,74226
91761,765,77142
92047,1055,75524
92337,760,74482
92633,860,72972
92944,665,69453
93246,855,71523
93534,870,75000
93824,760,74482
94102,675,77697
94395,1085,73720
94693,905,72483
94996,940,71287
95298,670,71523
95606,800,70129
95893,795,75261
96170,620,77978
96450,715,77142
96746,900,72972
97050,795,71052
97348,720,72483
97644,640,72972
97937,910,73720
98228,780,74226
98508,675,77142
98789,765,76868
99084,935,73220
99382,685,72483
99579,640,109644
99930,730,61538
100218,815,75000
100496,760,77697
100781,690,75789
101071,860,74482
101361,900,74482
101653,585,73972
101941,675,75000
102234,775,73720
102516,670,76595
102793,745,77978
103074,885,76868
103371,800,72727
103669,710,72483
103964,880,73220
104261,865,72727
104545,835,76056
104830,660,75789
105118,765,75000
105407,835,74740
105707,740,72000
106015,740,70129
106314,925,72240
106600,740,75524
106882,555,76595
107159,585,77978
107454,1125,73220
107751,890,72727
108045,700,73469
108342,900,72727
108643,800,71760
108925,655,76595
109199,760,78832
109485,760,75524
109772,910,75261
110076,720,71052
110374,800,72483
110673,880,72240
110963,795,74482
111243,640,77142
111524,870,76868
111810,865,75524
112108,870,72483
112405,810,72727
112710,835,70819
113000,725,74482
113281,780,76868
113562,790,76868
113850,950,75000
114142,1210,73972
114428,865,75524
114716,795,75000
115000,730,76056
115280,710,77142
115547,775,80898
115814,655,80898
116083,700,80297
116369,830,75524
116654,780,75789
116939,740,75789
117213,660,78832
117494,750,76868
117766,795,79411
118044,780,77697
118323,785,77419
118607,730,76056
118911,575,71052
119215,470,71052
119509,560,73469
119791,575,76595
120077,730,75524
120375,625,72483
120676,800,71760
120991,705,68571
121300,590,69902
121604,680,71052
121889,685,75789
122170,840,76868
122461,760,74226
122750,695,74740
123050,675,72000
123360,735,69677
123663,565,71287
123936,690,79120
124221,705,75789
124507,670,75524
124775,615,80597
125060,755,75789
125355,695,73220
125648,620,73720
125926,755,77697
126203,630,77978
126476,680,79120
126746,650,80000
127025,680,77419
127313,605,75000
127603,710,74482
127893,910,74482
128085,840,112500
128423,785,63905
128709,-580,75524
128958,850,86746
129231,905,79120
129519,775,75000
129798,790,77419
130057,855,83397
130318,840,82758
130568,875,86400
130818,610,86400
131073,670,84705
131326,725,85375
131584,670,83720
131852,1080,80597
132122,845,80000
132380,685,83720
132629,715,86746
132883,800,85039
133132,765,86746
133389,530,84046
133662,615,79120
133933,755,79704
134197,775,81818
134463,620,81203
134737,660,78832
134989,635,85714
135243,680,85039
135504,720,82758
135780,735,78260
136061,805,76868
136350,690,74740
136630,880,77142
136899,725,80297
137171,765,79411
137448,540,77978
137729,755,76868
138008,765,77419
138304,725,72972
138599,875,73220
138888,640,74740
139163,600,78545
139440,735,77978
139719,705,77419
140009,600,74482
140302,920,73720
140599,735,72727
140881,675,76595
141152,645,79704
141423,655,79704
141684,850,82758
141943,730,83397
142207,860,81818
142479,750,79411
142746,515,80898
143010,545,81818
143264,430,85039
143515,715,86055
143766,735,86055
144025,640,83397
144286,755,82758
144557,645,79704
144832,725,78545
145111,625,77419
145381,620,80000
145647,750,81203
145902,620,84705
146170,790,80597
146445,730,78545
146737,805,73972
147013,830,78260
147290,865,77978
147565,845,78545
147832,745,80898
148099,830,80898
148364,890,81509
148637,745,79120
148916,740,77419
149204,945,75000
149488,755,76056
149768,715,77142
150030,840,82442
150303,755,79120
150575,675,79411
150849,780,78832
151122,675,79120
151407,690,75789
151700,940,73720
151974,775,78832
152237,785,82129
152510,655,79120
152781,715,79704
153067,710,75524
153362,640,73220
153644,715,76595
153922,675,77697
154193,825,79704
154470,640,77978
154741,670,79704
155009,690,80597
155291,675,76595
155588,765,72727
155865,935,77978
156132,730,80898
156394,720,82442
156647,730,85375
156905,675,83720
157168,830,82129
157430,890,82442
157695,830,81509
157960,765,81509
158233,810,79120
158490,925,84046
158729,635,90376
158974,825,88163
159225,785,86055
159479,785,85039
159738,805,83397
160001,675,82129
160260,825,83397
160507,805,87449
160755,870,87096
161005,745,86400
161254,840,86746
161500,870,87804
161764,670,81818
162035,730,79704
162309,940,78832
162573,750,81818
162835,645,82442
163093,785,83720
163362,830,80297
163629,780,80898
163899,720,80000
164182,775,76325
164461,860,77419
164731,800,80000
164991,630,83076
165246,830,84705
165499,725,85375
165756,700,84046
166032,790,78260
166301,745,80297
166570,665,80297
166841,600,79704
167111,665,80000
167370,640,83397
167641,660,79704
167912,690,79704
168190,530,77697
168484,615,73469
168784,705,72000
169074,770,74482
169349,670,78545
169629,680,77142
169907,975,77697
170201,605,73469
170495,685,73469
170719,735,96428
171074,715,60845
171372,830,72483
171652,650,77142
171921,785,80297
172199,640,77697
172481,810,76595
172776,720,73220
173067,765,74226
173352,890,75789
173629,845,77978
173907,745,77697
174176,730,80297
174451,690,78545
174737,715,75524
175023,685,75524
175323,845,72000
175608,625,75789
175877,680,80297
176145,765,80597
176427,780,76595
176698,960,79704
176975,825,77978
177248,855,79120
177523,830,78545
177797,885,78832
178059,975,82442
178316,780,84046
178589,-365,79120
178841,890,85714
179117,755,78260
179388,865,79704
179662,910,78832
179927,865,81509
180182,690,84705
180444,830,82442
180705,835,82758
180964,675,83397
181236,695,79411
181523,750,75261
181811,915,75000
182084,670,79120
182354,965,80000
182624,860,80000
182896,1035,79411
183181,830,75789
183475,855,73469
183779,935,71052
184072,1050,73720
184361,935,74740
184649,755,75000
184933,775,76056
185213,910,77142
185510,830,72727
185828,650,67924
186138,880,69677
186427,600,74740
186717,745,74482
187005,745,75000
187291,790,75524
187577,855,75524
187872,760,73220
188179,950,70358
188481,815,71523
188763,730,76595
189043,945,77142
189330,795,75261
189624,680,73469
189929,730,70819
190228,820,72240
190529,805,71760
190820,715,74226
191112,765,73972
191395,830,76325
191674,700,77419
191977,835,71287
192281,705,71052
192575,735,73469
192862,685,75261
193146,770,76056
193423,760,77978
193703,770,77142
193994,810,74226
194281,775,75261
194574,695,73720
194868,985,73469
195156,1010,75000
195426,775,80000
195701,660,78545
195978,660,77978
196269,875,74226
196560,755,74226
196847,680,75261
197132,825,75789
197414,805,76595
197684,605,80000
197949,590,81509
198224,960,78545
198504,880,77142
198792,895,75000
199075,705,76325
199353,930,77697
199619,855,81203
199894,685,78545
200162,815,80597
200435,1030,79120
200714,830,77419
200993,760,77419
201271,695,77697
201545,875,78832
201806,695,82758
202067,765,82758
202339,805,79411
202614,865,78545
202896,710,76595
203182,755,75524
203468,780,75524
203741,730,79120
204021,645,77142
204299,660,77697
204574,945,78545
204854,780,77142
205158,705,71052
205459,845,71760
205737,845,77697
206016,830,77419
206288,655,79411
206567,885,77419
206844,845,77978
207129,620,75789
207421,730,73972
207724,710,71287
208004,705,77142
208277,555,79120
208548,690,79704
208822,760,78832
209100,775,77697
209392,645,73972
209683,575,74226
209973,785,74482
210256,805,76325
210533,520,77978
210809,755,78260
211085,650,78260
211364,660,77419
211654,745,74482
211951,740,72727
212228,730,77978
212502,785,78832
212777,610,78545
213058,730,76868
213326,650,80597
213606,580,77142
213894,560,75000
214181,685,75261
214465,720,76056
214738,715,79120
215005,655,80898
215280,765,78545
215563,735,76325
215850,615,75261
216141,710,74226
216431,710,74482
216709,635,77697
216990,745,76868
217268,610,77697
217547,830,77419
217824,750,77978
218122,695,72483
218417,975,73220
218703,865,75524
218972,670,80297
219246,710,78832
219529,975,76325
219813,795,76056
220098,620,75789
220391,640,73720
220691,850,72000
220988,-375,72727
221252,645,81818
221527,725,78545
221803,540,78260
222081,705,77697
222375,670,73469
222666,755,74226
222951,735,75789
223228,860,77978
223507,715,77419
223783,660,78260
224047,805,81818
224329,825,76595
224621,655,73972
224915,750,73469
225195,900,77142
225472,765,77978
225743,950,79704
226024,800,76868
226296,745,79411
226573,910,77978
226863,815,74482
227144,960,76868
227427,820,76325
227702,670,78545
227975,630,79120
228238,680,82129
228516,750,77697
228808,745,73972
229094,695,75524
229376,775,76595
229659,645,76325
229936,720,77978
230214,740,77697
230485,810,79704
230761,770,78260
231058,725,72727
231358,835,72000
231638,650,77142
231913,595,78545
232190,700,77978
232459,665,80297
232732,855,79120
233015,660,76325
233301,730,75524
233588,780,75261
233875,735,75261
234151,770,78260
234415,770,81818
234684,705,80297
234959,720,78545
235249,685,74482
235547,785,72483
235828,775,76868
236108,580,77142
236390,690,76595
236665,905,78545
236927,705,82442
237205,685,77697
237495,670,74482
237783,735,75000
238070,665,75261
238343,630,79120
238610,950,80898
238884,790,78832
239157,790,79120
239433,660,78260
239718,965,75789
239997,1250,77419
240267,985,80000
240541,805,78832
240809,935,80597
241065,845,84375
241318,745,85375
241588,840,80000
241855,935,80898
242114,855,83397
242373,690,83397
242632,900,83397
242879,845,87449
243131,640,85714
243388,720,84046
243643,885,84705
243908,870,81509
244191,685,76325
244461,845,80000
244729,945,80597
244984,845,84705
245258,-310,78832
245515,770,84046
245791,1030,78260
246077,-330,75524
246352,870,78545
246647,710,73220
246935,935,75000
247201,860,81203
247469,830,80597
247741,615,79411
248018,910,77978
248300,915,76595
248586,655,75524
248878,730,73972
249158,1085,77142
249433,725,78545
249706,680,79120
249988,585,76595
250273,785,75789
250558,920,75789
250858,615,72000
251160,685,71523
251441,710,76868
251711,830,80000
251993,565,76595
252285,655,73972
252585,835,72000
252868,850,76325
253159,795,74226
253456,840,72727
253741,810,75789
254021,-385,77142
254282,820,82758
254585,785,71287
254891,800,70588
255170,800,77419
255453,840,76325
255738,850,75789
256027,785,74740
256295,750,80597
256572,735,77978
256860,655,75000
257158,935,72483
257439,700,76868
257709,600,80000
257966,930,84046
258226,885,83076
258478,820,85714
258737,675,83397
259005,970,80597
259280,850,78545
259541,815,82758
259811,680,80000
260076,695,81509
260334,935,83720
260585,795,86055
260852,860,80898
261132,740,77142
261417,870,75789
261690,915,79120
261968,915,77697
262241,860,79120
262516,905,78545
262788,690,79411
263062,755,78832
263350,790,75000
263641,895,74226
263931,840,74482
264217,730,75524
264499,805,76595
264773,1040,78832
265062,740,74740
265354,715,73972
265652,860,72483
265947,910,73220
266238,790,74226
266528,675,74482
266815,825,75261
267099,855,76056
267375,680,78260
267679,750,71052
267978,735,72240
268260,810,76595
268545,850,75789
268823,765,77697
269102,830,77419
269384,985,76595
269669,690,75789
269960,940,74226
270257,820,72727
270550,700,73720
270821,720,79704
271094,725,79120
271370,715,78260
271656,780,75524
271953,960,72727
272244,780,74226
272533,750,74740
272839,775,70588
273123,790,76056
273394,855,79704
273675,795,76868
273967,785,73972
274264,880,72727
274560,755,72972
274852,740,73972
275131,750,77419
275403,940,79411
275671,800,80597
275949,820,77697
276235,795,75524
276516,985,76868
276804,920,75000
277102,705,72483
277388,905,75524
277649,935,82758
277923,1010,78832
278211,760,75000
278518,810,70358
278814,1095,72972
279110,-365,72972
279382,890,79411
279576,795,111340
279918,1020,63157
280209,1145,74226
280511,870,71523
280814,750,71287
281110,980,72972
281401,910,74226
281693,-320,73972
281955,915,82442
282233,960,77697
282513,1030,77142
282813,-335,72000
283096,915,76325
283389,850,73720
283672,1050,76325
283943,925,79704
284216,890,79120
284491,835,78545
284778,910,75261
285073,1060,73220
285363,1035,74482
285653,1015,74482
285936,865,76325
286221,-285,75789
286486,1035,81509
286763,1115,77978
287051,835,75000
287353,1115,71523
287668,-320,68571
287944,930,78260
288225,815,76868
288506,815,76868
288793,1190,75261
289076,1050,76325
289373,955,72727
289667,870,73469
289971,1100,71052
290257,880,75524
290538,890,76868
290813,815,78545
291110,1090,72727
291408,1090,72483
291696,880,75000
291990,885,73469
292281,985,74226
292566,795,75789
292844,735,77697
293123,820,77419
293411,850,75000
293712,830,71760
294011,850,72240
294296,900,75789
294581,885,75789
294857,1105,78260
295142,885,75789
295421,795,77419
295717,890,72972
296013,1000,72972
296319,850,70588
296611,785,73972
296889,890,77697
297169,905,77142
297450,950,76868
297738,765,75000
298032,780,73469
298334,1080,71523
298627,890,73720
298920,890,73720
299206,830,75524
299483,925,77978
299756,985,79120
300051,800,73220
300360,830,69902
300662,870,71523
300939,815,77978
301210,810,79704
301494,760,76056
301781,670,75261
302063,1135,76595
302347,900,76056
302644,780,72727
302947,700,71287
303240,860,73720
303503,1100,82129
303773,995,80000
304065,665,73972
304362,870,72727
304639,955,77978
304923,805,76056
305211,925,75000
305497,595,75524
305720,-450,96860
306035,820,68571
306337,865,71523
306641,880,71052
306943,1055,71523
307245,-310,71523
307513,755,80597
307745,890,93103
308062,620,68138
308349,815,75261
308625,890,78260
308912,825,75261
309216,735,71052
309516,930,72000
309791,-365,78545
310052,760,82758
310332,655,77142
310627,815,73220
310914,870,75261
311199,905,75789
311488,870,74740
311783,885,73220
312062,1005,77419
312327,770,81509
312605,860,77697
312826,890,97737
313194,965,58695
313508,965,68789
313808,1015,72000
314090,645,76595
314373,900,76325
314664,930,74226
314952,930,75000
315245,725,73720
315541,765,72972
315843,960,71523
316135,785,73972
316415,790,77142
316693,895,77697
316993,-320,72000
317266,965,79120
317560,810,73469
317785,750,96000
318145,900,60000
318449,-355,71052
318729,905,77142
319011,745,76595
319223,865,101886
319586,880,59504
319905,940,67711
320205,765,72000
320493,825,75000
320786,1045,73720
321072,975,75524
321371,715,72240
321663,795,73972
321968,1030,70819
322275,980,70358
322573,910,72483
322856,660,76325
323138,950,76595
323425,900,75261
323730,840,70819
324044,675,68789
324341,1065,72727
324641,1050,72000
324941,-310,72000
325215,830,78832
325495,945,77142
325782,740,75261
326088,960,70588
326396,1170,70129
326697,610,71760
326986,655,74740
327276,970,74482
327566,1040,74482
327859,970,73720
328149,750,74482
328452,955,71287
328753,850,71760
329056,1015,71287
329338,630,76595
329619,785,76868
329912,880,73720
330216,825,71052
330524,775,70129
330819,770,73220
331135,-330,68354
331411,855,78260
331704,945,73720
331989,740,75789
332279,900,74482
332588,865,69902
332897,810,69902
333199,705,71523
333479,875,77142
333768,1135,74740
334067,-305,72240
334348,770,76868
334643,755,73220
334943,885,72000
335248,825,70819
335543,850,73220
335823,745,77142
336100,965,77978
336385,865,75789
336679,780,73469
336979,670,72000
337281,1045,71523
337571,810,74482
337863,795,73972
338145,660,76595
338432,870,75261
338721,985,74740
339025,805,71052
339327,720,71523
339635,1000,70129
339925,760,74482
340205,965,77142
340492,785,75261
340780,820,75000
341074,775,73469
341379,920,70819
341684,700,70819
341974,735,74482
342266,1040,73972
342558,-365,73972
342822,855,81818
343116,770,73469
343409,755,73720
343717,-405,70129
343995,930,77697
344279,925,76056
344556,715,77978
344843,1105,75261
345140,-260,72727
345415,775,78545
345723,790,70129
346017,890,73469
346308,930,74226
346596,760,75000
346804,680,103846
347147,630,62973
347454,885,70358
347759,860,70819
348063,775,71052
348367,915,71052
348658,955,74226
348934,860,78260
349221,855,75261
349502,925,76868
349804,810,71523
350112,1000,70129
350409,780,72727
350692,735,76325
350980,860,75000
351265,1030,75789
351492,-305,95154
351821,925,65653
352115,720,73469
352416,925,71760
352711,885,73220
352986,610,78545
353257,715,79704
353548,840,74226
353832,825,76056
354128,755,72972
354426,770,72483
354717,795,74226
355015,905,72483
355313,-390,72483
355579,700,81203
355858,815,77419
356165,1045,70358
356463,895,72483
356758,835,73220
357045,755,75261
357328,1045,76325
357610,1010,76595
357900,830,74482
358186,895,75524
358483,925,72727
358789,1010,70588
359086,1125,72727
359364,695,77697
359633,680,80297
359902,630,80297
360182,880,77142
360470,785,75000
360763,970,73720
361051,945,75000
361344,990,73720
361626,1250,76595
361905,-355,77419
362162,800,84046
362451,1040,74740
362732,1135,76868
363026,1015,73469
363318,845,73972
363606,960,75000
363878,985,79411
364158,905,77142
364446,740,75000
364742,-360,72972
365022,935,77142
365330,940,70129
365640,915,69677
365914,990,78832
366191,855,77978
366482,810,74226
366778,960,72972
367063,875,75789
367363,800,72000
367674,835,69453
367971,-360,72727
368247,850,78260
368531,820,76056
368824,965,73720
369110,1090,75524
369410,955,72000
369714,745,71052
370011,1170,72727
370279,945,80597
370557,960,77697
370842,850,75789
371131,945,74740
371406,1085,78545
371703,820,72727
372007,845,71052
372299,995,73972
372557,955,83720
372834,1205,77978
373123,780,74740
373428,1030,70819
373712,1020,76056
374000,985,75000
374303,795,71287
374594,900,74226
374855,1130,82758
375124,880,80297
375412,850,75000
375715,990,71287
375998,1045,76325
376287,920,74740
376576,920,74740
376861,1025,75789
377092,-285,93506
377404,895,69230
377700,905,72972
378005,1055,70819
378308,1015,71287
378608,1065,72000
378886,1155,77697
379159,1110,79120
379440,1155,76868
379731,1230,74226
380023,775,73972
380312,960,74740
380610,985,72483
380898,890,75000
381172,790,78832
381464,-275,73972
381725,1185,82758
382015,1070,74482
382308,755,73720
382608,1185,72000
382895,995,75261
383183,815,75000
383457,730,78832
383743,890,75524
384027,920,76056
384317,940,74482
384614,655,72727
384915,910,71760
385205,910,74482
385487,975,76595
385768,585,76868
386050,750,76595
386349,965,72240
386649,805,72000
386941,745,73972
387241,705,72000
387533,945,73972
387811,745,77697
388084,605,79120
388373,1040,74740
388672,1010,72240
388979,860,70358
389277,705,72483
389563,845,75524
389860,1035,72727
390149,780,74740
390434,700,75789
390730,775,72972
391039,870,69902
391344,1005,70819
391640,645,72972
391935,-365,73220
392204,990,80297
392493,800,74740
392780,650,75261
393077,935,72727
393377,945,72000
393674,960,72727
393957,755,76325
394243,895,75524
394519,835,78260
394801,855,76595
395096,765,73220
395401,945,70819
395697,940,72972
395989,935,73972
396268,695,77419
396553,1025,75789
396845,860,73972
397133,820,75000
397336,780,106403
397704,915,58695
398007,950,71287
398294,865,75261
398569,865,78545
398865,-310,72972
399139,935,78832
399436,945,72727
399730,810,73469
400023,885,73720
400322,915,72240
400599,680,77978
400877,750,77697
401163,885,75524
401453,1045,74482
401758,830,70819
402061,890,71287
402361,1090,72000
402646,1040,75789
402933,785,75261
403215,765,76595
403509,1040,73469
403805,1030,72972
404100,845,73220
404403,840,71287
404697,1060,73469
404980,985,76325
405255,840,78545
405543,1030,75000
405836,1025,73720
406130,780,73469
406425,695,73220
406715,920,74482
407005,945,74482
407288,765,76325
407559,650,79704
407849,1035,74482
408151,970,71523
408452,815,71760
408745,715,73720
409030,1095,75789
409314,1045,76056
409597,835,76325
409881,965,76056
410177,1135,72972
410477,1015,72000
410781,755,71052
411071,770,74482
411352,1180,76868
411632,1090,77142
411915,875,76325
412206,810,74226
412512,1215,70588
412817,1080,70819
413109,970,73972
413402,810,73720
413692,990,74482
413969,985,77978
414249,815,77142
414541,810,73972
414847,920,70588
415143,945,72972
415430,885,75261
415703,785,79120
416005,-350,71523
416275,1150,80000
416555,695,77142
416849,695,73469
417152,965,71287
417445,980,73720
417728,715,76325
418006,825,77697
418295,-265,74740
418577,1095,76595
418866,905,74740
419156,1065,74482
419453,960,72727
419745,950,73972
420021,670,78260
420302,975,76868
420583,930,76868
420873,860,74482
421173,860,72000
421474,1025,71760
421778,-255,71052
421994,945,100000
422320,795,66257
422603,855,76325
422829,-335,95575
423164,875,64477
423462,830,72483
423767,705,70819
424075,-350,70129
424339,770,81818
424616,795,77978
424893,705,77978
425188,1155,73220
425491,990,71287
425788,690,72727
426078,820,74482
426380,910,71523
426661,845,76868
426938,675,77978
427225,785,75261
427523,955,72483
427827,830,71052
428129,875,71523
428412,685,76325
428698,980,75524
429003,-290,70819
429276,1025,79120
429558,775,76595
429867,945,69902
430165,855,72483
430470,885,70819
430754,765,76056
431035,1100,76868
431315,880,77142
431615,860,72000
431910,840,73220
432209,1225,72240
432509,1035,72000
432799,985,74482
433082,890,76325
433364,820,76595
433648,980,76056
433841,795,111917
434211,805,58378
434513,895,71523
434810,920,72727
435096,1195,75524
435370,780,78832
435658,895,75000
435951,945,73720
436149,855,109090
436512,745,59504
436819,765,70358
437129,-335,69677
437400,870,79704
437681,645,76868
437965,1170,76056
438268,965,71287
438570,1080,71523
438865,825,73220
439158,925,73720
439453,855,73220
439751,-380,72483
440022,635,79704
440313,1085,74226
440622,955,69902
440933,795,69453
441230,695,72727
441518,750,75000
441814,965,72972
442109,955,73220
442406,830,72727
442623,805,99539
442992,850,58536
443304,825,69230
443606,750,71523
443888,795,76595
444175,850,75261
444473,860,72483
444705,925,93103
445060,755,60845
445362,850,71523
445669,-350,70358
445948,930,77419
446226,750,77697
446507,1130,76868
446811,-345,71052
447104,1030,73720
447401,930,72727
447695,820,73469
447991,-360,72972
448264,975,79120
448548,845,76056
448835,1100,75261
449137,1290,71523
449441,945,71052
449748,965,70358
450037,815,74740
450325,995,75000
450607,1045,76595
450895,1010,75000
451193,990,72483
451501,1110,70129
451805,995,71052
452101,1045,72972
452390,950,74740
452677,960,75261
452970,-205,73720
453250,1210,77142
453545,930,73220
453852,1030,70358
454154,1085,71523
454443,910,74740
454651,970,103846
454997,1040,62427
455293,980,72972
455587,875,73469
455888,980,71760
456189,1185,71760
456487,1100,72483
456771,990,76056
457045,860,78832
457333,1025,75000
457635,1050,71523
457937,970,71523
458168,855,93506
458524,1160,60674
458816,1125,73972
459103,970,75261
459380,860,77978
459664,1060,76056
459966,1095,71523
460275,1025,69902
460571,1030,72972
460858,915,75261
461148,915,74482
461433,905,75789
461721,905,75000
462014,855,73720
462315,1160,71760
462621,980,70588
462918,735,72727
463198,1080,77142
463492,-350,73469
463765,1035,79120
464049,830,76056
464361,915,69230
464664,1215,71287
464960,1120,72972
465257,1000,72727
465538,680,76868
465820,975,76595
466104,975,76056
466404,935,72000
466707,785,71287
467010,755,71287
467319,-345,69902
467589,905,80000
467878,855,74740
468164,710,75524
468459,1005,73220
468762,995,71287
469065,775,71287
469363,825,72483
469672,-335,69902
469942,990,80000
470230,715,75000
470530,955,72000
470837,995,70358
471150,-330,69009
471444,950,73469
471727,890,76325
472019,1065,73972
472304,1040,75789
472588,805,76056
472887,915,72240
473201,1020,68789
473498,1005,72727
473791,705,73720
474073,645,76595
474362,885,74740
474652,780,74482
474943,950,74226
475237,740,73469
475548,1075,69453
475862,-410,68789
476136,730,78832
476416,665,77142
476706,1130,74482
476999,755,73720
477307,745,70129
477604,755,72727
477898,970,73469
478195,910,72727
478480,750,75789
478756,650,78260
479040,1030,76056
479343,-340,71287
479633,915,74482
479931,870,72483
480218,910,75261
480505,-360,75261
480779,925,78832
481056,735,77978
481340,825,76056
481653,-285,69009
481941,1090,75000
482239,835,72483
482525,860,75524
482801,935,78260
483071,835,80000
483350,760,77419
483634,990,76056
483931,1110,72727
484221,1030,74482
484506,700,75789
484785,790,77419
485072,925,75261
485352,1270,77142
485641,930,74740
485939,965,72483
486253,1065,68789
486556,885,71287
486844,785,75000
487129,910,75789
487435,-360,70588
487718,735,76325
488018,755,72000
488320,810,71523
488635,900,68571
488931,880,72972
489214,720,76325
489497,855,76325
489788,985,74226
490090,865,71523
490393,785,71287
490695,980,71523
491006,-315,69453
491287,945,76868
491570,770,76325
491849,655,77419
492145,960,72972
492445,995,72000
492750,740,70819
493046,880,72972
493340,1110,73469
493623,830,76325
493913,635,74482
494199,695,75524
494491,980,73972
494790,1005,72240
495085,815,73220
495370,750,75789
495649,1050,77419
495935,-360,75524
496201,900,81203
496499,700,72483
496712,675,101408
497074,1025,59668
497376,870,71523
497664,735,75000
497945,880,76868
498230,1015,75789
498517,915,75261
498812,935,73220
499114,720,71523
499417,935,71287
499702,1145,75789
499987,995,75789
500268,895,76868
500549,885,76868
500848,1220,72240
501145,925,72727
501448,775,71287
501745,650,72727
502050,-445,70819
502327,-390,77978
502601,865,78832
502888,680,75261
503191,990,71287
503508,-375,68138
503793,785,75789
504080,810,75261
504373,990,73720
504665,-320,73972
504936,1070,79704
505227,825,74226
505528,920,71760
505830,1115,71523
506125,1055,73220
506398,915,79120
506679,935,76868
506969,1020,74482
507256,960,75261
507552,725,72972
507855,795,71287
508160,1170,70819
508455,945,73220
508744,810,74740
509019,720,78545
509319,1050,72000
509623,1080,71052
509923,810,72000
510220,760,72727
510531,-355,69453
510804,920,79120
511093,960,74740
511371,755,77697
511660,1015,74740
511982,-340,67080
512277,905,73220
512568,845,74226
512851,915,76325
513135,965,76056
513424,1020,74740
513720,910,72972
514014,710,73469
514318,1085,71052
514628,1015,69677
514919,950,74226
515194,840,78545
515476,1135,76595
515762,1030,75524
516065,995,71287
516371,765,70588
516667,1040,72972
516970,1040,71287
517277,-260,70358
517553,860,78260
517832,835,77419
518127,1145,73220
518438,-275,69453
518734,1045,72972
519028,885,73469
519307,805,77419
519605,-230,72483
519893,-210,75000
520149,910,84375
520463,950,68789
520768,970,70819
520982,1035,100934
521342,1025,60000
521627,660,75789
521913,1045,75524
522220,-265,70358
522511,885,74226
522815,1035,71052
523116,820,71760
523427,-265,69453
523708,930,76868
523999,890,74226
524279,705,77142
524577,1070,72483
524890,1010,69009
525198,860,70129
525492,760,73469
525780,900,75000
526064,1095,76056
526355,770,74226
526646,660,74226
526941,955,73220
527243,895,71523
527548,820,70819
527838,705,74482
528118,750,77142
528413,-330,73220
528689,900,78260
528991,720,71523
529293,775,71523
529599,1105,70588
529897,1055,72483
530190,710,73720
530471,700,76868
530763,1080,73972
531069,-310,70588
531358,930,74740
531668,820,69677
531967,880,72240
532268,-315,71760
532544,890,78260
532828,980,76056
533133,-360,70819
533427,-250,73469
533719,935,73972
534012,1035,73720
534307,840,73220
534592,940,75789
534873,1235,76868
535161,905,75000
535459,880,72483
535768,1170,69902
536067,1060,72240
536364,900,72727
536644,760,77142
536930,980,75524
537212,1210,76595
537505,1045,73720
537810,1025,70819
538115,1140,70819
538421,1025,70588
538707,1020,75524
538993,965,75524
539278,860,75789
539575,1335,72727
539886,-280,69453
540172,915,75524
540472,870,72000
540768,1015,72972
541052,1040,76056
541333,765,76868
541616,760,76325
541916,970,72000
542226,1055,69677
542529,995,71287
542825,800,72972
543116,940,74226
543407,1015,74226
543689,1130,76595
543983,980,73469
544285,705,71523
544590,940,70819
544895,1090,70819
545182,1050,75261
545455,770,79120
545741,950,75524
546022,995,76868
546306,880,76056
546599,740,73720
547199,865,36000
547482,980,76325
547758,740,78260
548032,790,78832
548346,-365,68789
548632,900,75524
548926,885,73469
549218,795,73972
549501,785,76325
549784,975,76325
550069,760,75789
550348,660,77419
550640,1000,73972
550952,965,69230
551265,-310,69009
551532,850,80898
551815,915,76325
552096,1015,76868
552385,1020,74740
552680,965,73220
552975,845,73220
553282,975,70358
553588,975,70588
553876,855,75000
554154,690,77697
554450,-365,72972
554723,910,79120
555026,785,71287
555324,795,72483
555613,730,74740
555914,1055,71760
556215,-345,71760
556485,730,80000
556765,715,77142
557056,840,74226
557361,1070,70819
557668,1040,70358
557962,890,73469
558238,800,78260
558527,1085,74740
558813,1000,75524
559102,770,74740
559395,695,73720
559695,760,72000
560009,-310,68789
560296,1110,75261
560576,790,77142
560846,815,80000
561153,-375,70358
561435,920,76595
561732,875,72727
562019,655,75261
562308,825,74740
562591,805,76325
562812,900,97737
563142,820,65454
563424,855,76595
563731,1010,70358
564030,940,72240
564320,870,74482
564601,1075,76868
564893,-325,73972
565164,985,79704
565452,725,75000
565741,890,74740
566052,-305,69453
566259,950,104347
566615,815,60674
566898,720,76325
567184,930,75524
567379,1225,110769
567721,1035,63157
568027,840,70588
568326,785,72240
568624,1055,72483
568919,1300,73220
569204,905,75789
569482,760,77697
569763,965,76868
570058,1050,73220
570366,1005,70129
570667,690,71760
570957,875,74482
571257,-350,72000
571538,1100,76868
571831,780,73720
572122,770,74226
572428,1050,70588
572730,890,71523
573040,850,69677
573328,840,75000
573608,1045,77142
573905,-285,72727
574193,1050,75000
574430,950,91139
574786,1025,60674
575095,1075,69902
575387,1105,73972
575678,905,74226
575958,735,77142
576248,1045,74482
576551,1100,71287
576862,860,69453
577162,770,72000
577456,945,73469
577752,-365,72972
578025,960,79120
578310,715,75789
578600,870,74482
578901,1120,71760
579204,965,71287
579448,930,88524
579790,665,63157
580074,1115,76056
580368,-340,73469
580648,965,77142
580947,895,72240
581246,820,72240
581543,990,72727
581834,1230,74226
582119,885,75789
582395,790,78260
582668,835,79120
582920,945,85714
583239,1235,67711
583539,1120,72000
583821,845,76595
584097,615,78260
584363,550,81203
584634,440,79704
584903,530,80297
585175,555,79411
585454,505,77419
585731,725,77978
586011,670,77142
586275,640,81818
586524,585,86746
586771,795,87449
587030,780,83397
587299,835,80297
587571,720,79411
587842,695,79704
588113,1115,79704
588376,620,82129
588643,960,80898
588905,710,82442
589177,810,79411
589454,795,77978
589747,780,73720
590040,645,73720
590316,725,78260
590588,820,79411
590863,640,78545
591143,645,77142
591417,885,78832
591706,590,74740
591999,840,73720
592288,810,74740
592571,680,76325
592853,660,76595
593068,855,100465
593387,780,67711
593683,605,72972
593990,635,70358
594280,940,74482
594563,685,76325
594855,850,73972
595127,960,79411
595402,900,78545
595689,665,75261
595992,980,71287
596278,1025,75524
596583,715,70819
596879,980,72972
597136,995,84046
597402,860,81203
597670,845,80597
597925,825,84705
598186,720,82758
598458,820,79411
598713,920,84705
598969,915,84375
599221,605,85714
599468,690,87449
599703,810,91914
599953,1020,86400
600214,730,82758
600483,830,80297
600739,1050,84375
601011,940,79411
601272,690,82758
601537,875,81509
601799,865,82442
602063,565,81818
602330,835,80898
602610,1000,77142
602893,755,76325
603178,630,75789
603455,965,77978
603722,915,80898
603989,840,80898
604276,670,75261
604564,1070,75000
604844,1200,77142
605148,845,71052
605459,895,69453
605737,1035,77697
606007,835,80000
606293,815,75524
606588,1090,73220
606880,990,73972
607179,1010,72240
607475,840,72972
607766,970,74226
608043,705,77978
608309,795,81203
608576,895,80898
608853,1095,77978
609136,755,76325
609425,705,74740
609715,620,74482
609987,540,79411
610262,735,78545
610544,665,76595
610823,855,77419
611109,915,75524
611399,760,74482
611695,850,72972
611986,780,74226
612263,850,77978
612539,1000,78260
612819,945,77142
613108,1010,74740
613400,1160,73972
613693,1080,73720
613984,1110,74226
614259,880,78545
614550,-305,74226
614827,-290,77978
615089,940,82442
615370,860,76868
615676,1030,70588
615968,1035,73972
616250,955,76595
616527,1055,77978
616803,1150,78260
617086,1185,76325
617366,830,77142
617655,995,74740
617949,930,73469
618248,940,72240
618528,755,77142
618804,865,78260
619081,885,77978
619362,905,76868
619653,965,74226
619951,815,72483
620249,995,72483
620541,1045,73972
620826,1060,75789
621102,1080,78260
621390,-180,75000
621661,1070,79704
621944,945,76325
622247,1100,71287
622541,990,73469
622823,890,76595
623089,950,81203
623367,985,77697
623638,915,79704
623917,825,77419
624191,1150,78832
624493,-330,71523
624765,1085,79411
625048,1070,76325
625309,740,82758
625579,960,80000
625854,1085,78545
626138,895,76056
626427,740,74740
626716,1025,74740
627011,-320,73220
627281,975,80000
627555,845,78832
627827,960,79411
628103,1005,78260
628391,975,75000
628688,920,72727
628981,1040,73720
629171,910,113684
629495,1045,66666
629761,925,81203
630027,910,81203
630289,705,82442
630562,900,79120
630837,970,78545
631110,915,79120
631377,830,80898
631635,660,83720
631898,1035,82129
632157,855,83397
632414,685,84046
632688,915,78832
632958,980,80000
633229,1195,79704
633498,985,80297
633768,995,80000
634028,1010,83076
634283,790,84705
634545,1005,82442
634826,765,76868
635107,990,76868
635394,825,75261
635684,675,74482
635966,880,76595
636239,975,79120
636520,825,76868
636811,730,74226
637105,1190,73469
637399,835,73469
637704,845,70819
637997,800,73720
638283,1170,75524
638560,895,77978
638846,725,75524
639140,850,73469
639446,835,70588
639744,820,72483
640039,680,73220
640329,875,74482
640615,895,75524
640900,935,75789
641177,620,77978
641480,875,71287
641777,920,72727
642065,825,75000
642337,905,79411
642614,1060,77978
642887,1115,79120
643164,855,77978
643439,950,78545
643722,1025,76325
644005,900,76325
644286,670,76868
644548,950,82442
644807,815,83397
645063,940,84375
645320,630,84046
645581,760,82758
645863,790,76595
646132,815,80297
646393,710,82758
646658,925,81509
646917,1155,83397
647167,640,86400
647414,790,87449
647672,850,83720
647935,925,82129
648204,815,80297
648477,820,79120
648733,925,84375
648978,825,88163
649232,840,85039
649484,750,85714
649733,650,86746
